pi_time,angle,velocity,acceleration,current,torque
0.055878400802612305,1.0046158541237507,-0.012210012210012167,0.22288206260283092,-0.01318681318681314,-0.017327472527472465
0.056238412857055664,1.0046158541237507,-0.0366300366300365,-135.66225974172946,-0.00439560439560438,-0.005775824175824155
0.05708456039428711,1.0046158541237507,-0.012210012210012167,-28.860244041985275,0.0219780219780219,0.028879120879120777
0.05806446075439453,1.0046158541237507,0.012210012210012167,-24.920926059612103,-0.0219780219780219,-0.028879120879120777
0.05905461311340332,1.0046158541237507,-0.0366300366300365,49.32579152661004,-0.05714285714285694,-0.075085714285714
0.06008315086364746,1.0046158541237507,-0.0366300366300365,-0.0,-0.12747252747252702,-0.1674989010989005
0.061239004135131836,1.0046158541237507,-0.0366300366300365,-0.0,-0.16263736263736206,-0.21370549450549373
0.06208682060241699,1.0046158541237507,0.012210012210012167,-57.60686507593124,-0.2681318681318672,-0.3523252747252735
0.06302332878112793,1.0046158541237507,-0.08547008547008517,104.30245020876349,-0.38241758241758106,-0.5024967032967015
0.06401729583740234,1.0046158541237507,-0.0366300366300365,-49.136486497963894,-0.5054945054945073,-0.6642197802197826
0.06501150131225586,1.0046158541237507,-0.0366300366300365,-0.0,-0.6285714285714299,-0.8259428571428588
0.06601142883300781,1.0046158541237507,-0.20757020757020683,170.95256145327616,-0.7956043956043963,-1.0454241758241767
0.06700825691223145,1.0042343785763332,-0.1831501831501825,-24.49772927649025,-0.953846153846154,-1.2533538461538463
0.0680081844329834,1.0042343785763332,-0.06105006105006083,-122.10897246662583,-1.0945054945054942,-1.4381802197802194
0.06982111930847168,1.0042343785763332,-0.06105006105006083,-122.10897246662583,-1.0945054945054942,-1.4381802197802194
0.07015085220336914,1.0034714274814984,-0.35409035409035283,74.06001887563683,-1.4197802197802183,-1.8655912087912068
0.07103776931762695,1.003089951934081,-0.5982905982905962,275.3360379166821,-1.595604395604397,-2.0966241758241777
0.07205080986022949,1.0023270008392462,-0.5494505494505475,-48.211346719230754,-1.6835164835164846,-2.2121406593406605
0.07301187515258789,1.0015640497444114,-0.7448107448107422,203.2746337980764,-1.8593406593406598,-2.443173626373627
0.07401204109191895,1.0008010986495766,-0.8669108669108638,122.07986424911292,-1.8417582417582423,-2.42007032967033
0.07500505447387695,0.9996566720073243,-1.233211233211236,368.8775730072307,-1.7890109890109898,-2.3507604395604402
0.07600522041320801,0.9985122453650721,-1.2576312576312603,24.415972849822584,-1.7626373626373635,-2.3161054945054955
0.07700681686401367,0.9969863431754025,-1.5506715506715523,292.57321429661243,-1.5868131868131883,-2.085072527472529
0.07800579071044922,0.9958419165331502,-1.379731379731382,-171.11576198926974,-1.4021978021978008,-1.8424879120879103
0.0790107250213623,0.9939345387960632,-1.599511599511601,218.7010806512578,-1.1120879120879117,-1.4612835164835158
0.08000540733337402,0.9924086366063936,-1.746031746031747,147.30346036194499,-0.7428571428571438,-0.9761142857142869
0.0810086727142334,0.9905012588693065,-1.6971916971916983,-48.68108655180881,-0.27692307692307594,-0.36387692307692177
0.0820465087890625,0.9889753566796369,-1.7704517704517713,70.58925300138232,0.1098901098901095,0.14439560439560387
0.08303713798522949,0.9870679789425498,-1.6483516483516496,-123.25512166667357,0.5846153846153861,0.7681846153846172
0.08400917053222656,0.9859235523002976,-1.452991452991455,-200.9811255433029,0.989010989010989,1.2995604395604397
0.08500480651855469,0.984397650110628,-1.3553113553113576,-98.10824339559937,1.3406593406593394,1.761626373626372
0.08600640296936035,0.9828717479209583,-1.2087912087912116,-146.28660714830622,1.6571428571428584,2.177485714285716
0.08700680732727051,0.9821087968261235,-1.013431013431017,-195.2812318493913,1.7890109890109898,2.3507604395604402
0.08801078796386719,0.9809643701838713,-0.9645909645909612,-48.646405179302135,1.7714285714285722,2.3276571428571438
0.0890049934387207,0.9802014190890365,-0.7448107448107422,-221.06116425540807,1.6131868131868146,2.119727472527474
0.09000754356384277,0.979819943541619,-0.5494505494505475,-194.8632696409146,1.243956043956043,1.6345582417582405
0.09100508689880371,0.9794384679942016,-0.30525030525030417,-244.80163983031966,0.734065934065935,0.9645626373626385
0.09201383590698242,0.9790569924467842,-0.35409035409035283,48.41645289766284,0.1098901098901095,0.14439560439560387
0.09300756454467773,0.9790569924467842,-0.2564102564102555,-98.29655096449687,-0.49670329670329494,-0.6526681318681296
0.0940086841583252,0.9786755168993668,-0.3296703296703285,73.17814201357876,-1.0857142857142854,-1.426628571428571
0.09500622749328613,0.9782940413519494,-0.5006105006104988,171.36114788122376,-1.5692307692307708,-2.0619692307692326
0.09600520133972168,0.9775310902571146,-0.6959706959706935,195.5608708448797,-1.780219780219781,-2.3392087912087924
0.09700465202331543,0.9767681391622798,-0.6471306471306448,-48.866892225670675,-1.7626373626373635,-2.3161054945054955
0.09800243377685547,0.976005188067445,-0.8669108669108638,220.26883033334568,-1.4725274725274708,-1.9349010989010966
0.09900426864624023,0.9748607614251927,-1.0622710622710656,195.0023914421884,-0.9274725274725277,-1.2186989010989016
0.10000324249267578,0.9740978103303579,-1.08669108669109,24.445108855609963,-0.25054945054944966,-0.32922197802197684
0.10100340843200684,0.9729533836881057,-1.159951159951163,73.24791854946776,0.5230769230769248,0.687323076923079
0.10209894180297852,0.9718089570458535,-0.8424908424908395,-289.7769487192828,1.1999999999999993,1.5767999999999989
0.10304141044616699,0.9710460059510186,-0.7203907203907178,-129.55351139009073,1.6483516483516496,2.1659340659340676
0.1044931411743164,0.9706645304036012,-0.5738705738705718,-100.92790879126859,1.7890109890109898,2.3507604395604402
0.10519266128540039,0.9702830548561838,-0.37851037851037717,-279.27745359238105,1.5428571428571445,2.027314285714288
0.10609292984008789,0.9699015793087664,-0.28083028083027983,-108.501065789201,0.989010989010989,1.2995604395604397
0.10715937614440918,0.9699015793087664,-0.012210012210012167,-251.88353837582454,0.08351648351648322,0.10974065934065895
0.10803842544555664,0.9699015793087664,-0.13431013431013383,138.90019813534818,-0.7076923076923087,-0.9299076923076937
0.1090090274810791,0.969520103761349,-0.20757020757020683,75.47900228813982,-1.428571428571427,-1.877142857142855
0.11000800132751465,0.9691386282139316,-0.20757020757020683,-0.0,-1.7714285714285722,-2.3276571428571438
0.11102080345153809,0.9687571526665142,-0.42735042735042583,217.002131578402,-1.6835164835164846,-2.2121406593406605
0.1120462417602539,0.9679942015716794,-0.7448107448107422,309.58499868985695,-1.1120879120879117,-1.4612835164835158
0.11300945281982422,0.967612726024262,-0.6471306471306448,-101.41089713366905,-0.23296703296703214,-0.30611868131868025
0.11400604248046875,0.9668497749294271,-0.7448107448107422,98.0143599090964,0.7516483516483525,0.9876659340659352
0.11500716209411621,0.9660868238345923,-0.5250305250305232,-219.5344260407363,1.4813186813186796,1.9464527472527449
0.11500716209411621,0.9660868238345923,-0.5250305250305232,-219.5344260407363,1.4813186813186796,1.9464527472527449
0.1171877384185791,0.9657053482871749,-0.2564102564102555,-1340.1402667944676,1.4813186813186796,1.9464527472527449
0.11807966232299805,0.9657053482871749,-0.06105006105006083,-219.03235734831486,0.7076923076923087,0.9299076923076937
0.1191718578338623,0.9657053482871749,0.012210012210012167,-67.07596994433906,-0.33846153846153726,-0.4447384615384599
0.12004995346069336,0.9657053482871749,-0.012210012210012167,27.81021072631163,-1.2351648351648343,-1.6230065934065923
0.12102007865905762,0.9657053482871749,-0.06105006105006083,50.3440678815462,-1.7362637362637372,-2.281450549450551
0.12202286720275879,0.9653238727397575,-0.3296703296703285,267.8732922384839,-1.5868131868131883,-2.085072527472529
0.1230161190032959,0.9649423971923401,-0.3296703296703285,-0.0,-0.8219780219780226,-1.0800791208791216
0.12401747703552246,0.9641794460975053,-0.4761904761904745,146.32143729286534,0.2593406593406584,0.3407736263736251
0.12507319450378418,0.9637979705500879,-0.35409035409035283,-115.6560592874952,1.2615384615384606,1.657661538461537
0.12604618072509766,0.9634164950026705,-0.3296703296703285,-25.098016688313095,1.7626373626373635,2.3161054945054955
0.12702512741088867,0.9634164950026705,-0.012210012210012167,-324.2876471907147,1.4901098901098884,1.9580043956043933
0.12801742553710938,0.9637979705500879,0.0366300366300365,-49.219128354159416,0.5758241758241773,0.756632967032969
0.12901568412780762,0.9637979705500879,0.1098901098901095,-73.3878715822826,-0.6021978021978036,-0.7912879120879139
0.13001203536987305,0.9637979705500879,0.06105006105006083,49.01890696578403,-1.5164835164835182,-1.9926593406593427
0.1310102939605713,0.9637979705500879,-0.15873015873015817,220.16361474684777,-1.7186813186813197,-2.258347252747254
0.1320197582244873,0.9634164950026705,-0.2564102564102555,96.76429485593363,-1.0857142857142854,-1.426628571428571
0.13301491737365723,0.9634164950026705,-0.23199023199023117,-24.53881315405025,0.07472527472527446,0.09818901098901064
0.13401126861572266,0.963035019455253,-0.20757020757020683,-24.509453482892017,1.2263736263736256,1.6114549450549438
0.1350104808807373,0.963035019455253,-0.1831501831501825,-24.439276092819313,1.7538461538461547,2.304553846153847
0.13601231575012207,0.963035019455253,0.13431013431013383,-316.8788860935447,1.323076923076922,1.7385230769230753
0.13701081275939941,0.9634164950026705,0.30525030525030417,-171.1974791630946,0.16263736263736206,0.21370549450549373
0.13800835609436035,0.9634164950026705,0.20757020757020683,97.92065593212786,-1.0593406593406591,-1.391973626373626
0.13901400566101074,0.9637979705500879,0.13431013431013383,72.84851074324733,-1.709890109890111,-2.2467956043956057
0.1400127410888672,0.9637979705500879,-0.0366300366300365,171.15661082240157,-1.4021978021978008,-1.8424879120879103
0.14101171493530273,0.9634164950026705,-0.08547008547008517,48.890217711219925,-0.23296703296703214,-0.30611868131868025
0.1420133113861084,0.9634164950026705,-0.1831501831501825,97.52440476553748,1.0153846153846153,1.3342153846153846
0.14301133155822754,0.9634164950026705,-0.1098901098901095,-73.40540332417994,1.7274725274725284,2.2698989010989026
0.1440126895904541,0.9634164950026705,0.13431013431013383,-243.86906215477558,1.2791208791208781,1.6807648351648339
0.14501094818115234,0.9637979705500879,0.20757020757020683,-73.3878715822826,-0.00439560439560438,-0.005775824175824155
0.14600920677185059,0.9641794460975053,0.28083028083027983,-73.3878715822826,-1.243956043956043,-1.6345582417582405
0.14701056480407715,0.9641794460975053,0.20757020757020683,73.16071864643267,-1.7010989010989022,-2.2352439560439574
0.14801025390625,0.9641794460975053,-0.0366300366300365,244.27618913667,-0.9714285714285715,-1.276457142857143
0.14901089668273926,0.9637979705500879,-0.23199023199023117,195.23470308316558,0.40879120879120734,0.5371516483516464
0.1500074863433838,0.9637979705500879,-0.15873015873015817,-73.5107699318223,1.5340659340659357,2.0157626373626396
0.15100669860839844,0.9637979705500879,-0.1098901098901095,-48.878552185638625,1.560439560439562,2.0504175824175843
0.15202069282531738,0.9637979705500879,0.13431013431013383,-240.8300167058682,0.3912087912087898,0.5140483516483498
0.15301012992858887,0.9641794460975053,0.13431013431013383,-0.0,-1.0153846153846153,-1.3342153846153846
0.15401124954223633,0.9641794460975053,-0.0366300366300365,170.74899803168378,-1.7010989010989022,-2.2352439560439574
0.15500688552856445,0.9641794460975053,-0.1831501831501825,147.16236509339905,-1.0417582417582416,-1.3688703296703295
0.15600848197937012,0.9637979705500879,-0.28083028083027983,97.52440476553748,0.3999999999999986,0.5255999999999981
0.15700769424438477,0.9637979705500879,-0.1098901098901095,-171.0749326497352,1.5780219780219795,2.0735208791208812
0.15800762176513672,0.9637979705500879,-0.06105006105006083,-48.84358898665033,1.4021978021978008,1.8424879120879103
0.15900802612304688,0.9637979705500879,0.06105006105006083,-122.05076990586957,0.08351648351648322,0.10974065934065895
0.1600046157836914,0.9637979705500879,0.13431013431013383,-73.5107699318223,-1.3054945054945044,-1.7154197802197788
0.16100430488586426,0.9637979705500879,-0.1831501831501825,317.55904587767105,-1.6395604395604408,-2.154382417582419
0.16201519966125488,0.9637979705500879,-0.13431013431013383,-48.31368212500271,-0.47032967032966866,-0.6180131868131845
0.16300630569458008,0.9637979705500879,-0.1098901098901095,-24.639164326438717,1.0505494505494504,1.3804219780219775
0.16400885581970215,0.9634164950026705,-0.0366300366300365,-73.07372611534298,1.6483516483516496,2.1659340659340676
0.1650071144104004,0.9637979705500879,0.13431013431013383,-171.23836702532606,0.6989010989011,0.9183560439560452
0.16600656509399414,0.9637979705500879,0.13431013431013383,-0.0,-0.8835164835164839,-1.1609406593406597
0.16701006889343262,0.9637979705500879,0.012210012210012167,121.67380150273907,-1.6659340659340671,-2.189037362637364
0.16800808906555176,0.9637979705500879,-0.0366300366300365,48.936935549453295,-0.8307692307692314,-1.0916307692307698
0.16900873184204102,0.9637979705500879,-0.08547008547008517,48.808675770791396,0.7516483516483525,0.9876659340659352
0.17000722885131836,0.9634164950026705,-0.1831501831501825,97.82713095033978,1.6483516483516496,2.1659340659340676
0.1710057258605957,0.9637979705500879,0.13431013431013383,-317.9381755886043,0.8395604395604401,1.1031824175824183
0.17200994491577148,0.9637979705500879,0.08547008547008517,48.634855700382595,-0.8043956043956051,-1.0569758241758251
0.1730046272277832,0.9637979705500879,-0.06105006105006083,147.30346036194499,-1.6571428571428584,-2.177485714285716
0.17400622367858887,0.9637979705500879,-0.15873015873015817,97.52440476553748,-0.7428571428571438,-0.9761142857142869
0.17566895484924316,0.9637979705500879,-0.08547008547008517,-44.06008292443608,0.9362637362637365,1.2302505494505496
0.1766815185546875,0.9637979705500879,-0.08547008547008517,-44.06008292443608,0.9362637362637365,1.2302505494505496
0.1770615577697754,0.9637979705500879,0.06105006105006083,-0.0,0.953846153846154,1.2533538461538463
0.1782221794128418,0.9641794460975053,0.20757020757020683,-126.24281771364717,-1.1824175824175818,-1.5536967032967024
0.17903995513916016,0.9641794460975053,0.0366300366300365,209.03062470409336,-1.5516483516483532,-2.038865934065936
0.18001127243041992,0.9641794460975053,-0.06105006105006083,100.56456171330952,-0.21538461538461462,-0.2830153846153836
0.18100643157958984,0.9641794460975053,-0.012210012210012167,-49.0776263081005,1.3670329670329657,1.796281318681317
0.18201136589050293,0.9641794460975053,0.0366300366300365,-48.600240144723955,1.3494505494505482,1.7731780219780202
0.18300867080688477,0.9641794460975053,0.06105006105006083,-24.486016281378376,-0.3032967032967022,-0.3985318681318667
0.1840059757232666,0.9641794460975053,-0.0366300366300365,97.9440651255135,-1.5428571428571445,-2.027314285714288
0.18499994277954102,0.9641794460975053,-0.1098901098901095,73.70472974694584,-0.953846153846154,-1.2533538461538463
0.18600010871887207,0.9637979705500879,-0.15873015873015817,48.83194569964517,0.8219780219780226,1.0800791208791216
0.18700218200683594,0.9637979705500879,-0.1098901098901095,-48.73899886034059,1.6219780219780233,2.1312791208791224
0.18799924850463867,0.9637979705500879,0.08547008547008517,-195.93497102822715,0.3296703296703285,0.4331868131868116
0.18899893760681152,0.9637979705500879,-0.08547008547008517,170.99333239566903,-1.3318681318681307,-1.7500747252747235
0.18999719619750977,0.9637979705500879,-0.08547008547008517,-0.0,-1.3054945054945044,-1.7154197802197788
0.19101572036743164,0.9637979705500879,-0.1098901098901095,23.975890942182993,0.42637362637362486,0.560254945054943
0.19225692749023438,0.9634164950026705,-0.1831501831501825,59.023245930660245,1.7010989010989022,2.2352439560439574
0.1931154727935791,0.9634164950026705,0.012210012210012167,-227.54791692308967,0.6373626373626387,0.8374945054945072
0.19413352012634277,0.9637979705500879,0.15873015873015817,-143.92272520609706,-1.138461538461538,-1.495938461538461
0.19507575035095215,0.9637979705500879,0.1098901098901095,51.83451725961829,-1.4021978021978008,-1.8424879120879103
0.19608068466186523,0.9637979705500879,-0.13431013431013383,243.0012007236198,0.32087912087911974,0.42163516483516333
0.19721102714538574,0.9637979705500879,-0.0366300366300365,-86.41637300569984,1.7010989010989022,2.2352439560439574
0.19801092147827148,0.9637979705500879,-0.0366300366300365,-0.0,0.6813186813186825,0.8952527472527487
0.19901251792907715,0.9637979705500879,0.15873015873015817,-195.04880953107497,-1.1999999999999993,-1.5767999999999989
0.20000863075256348,0.9641794460975053,0.1098901098901095,49.03063959071601,-1.3318681318681307,-1.7500747252747235
0.2010054588317871,0.9637979705500879,-0.06105006105006083,171.48410493543176,0.5406593406593423,0.7104263736263757
0.20201325416564941,0.9637979705500879,-0.012210012210012167,-48.462269271353556,1.595604395604397,2.0966241758241777
0.20300960540771484,0.9637979705500879,-0.012210012210012167,-0.0,0.2857142857142847,0.3754285714285701
0.20400500297546387,0.9641794460975053,0.1098901098901095,-122.66467797006676,-1.428571428571427,-1.877142857142855
0.20500397682189941,0.9637979705500879,-0.08547008547008517,195.5608708448797,-0.9714285714285715,-1.276457142857143
0.20600366592407227,0.9637979705500879,-0.13431013431013383,48.85523782733401,0.9802197802197803,1.2880087912087912
0.20700526237487793,0.9637979705500879,-0.012210012210012167,-121.90550595692186,1.4021978021978008,1.8424879120879103
0.20800304412841797,0.9637979705500879,0.1098901098901095,-122.37157240741426,-0.36483516483516354,-0.47939340659340485
0.20900344848632812,0.9641794460975053,0.06105006105006083,48.820307962347826,-1.5692307692307708,-2.0619692307692326
0.21000266075134277,0.9637979705500879,-0.08547008547008517,146.63565655691588,-0.2593406593406584,-0.3407736263736251
0.21100187301635742,0.9637979705500879,-0.13431013431013383,48.878552185638625,1.4461538461538446,1.9002461538461517
0.21201014518737793,0.9637979705500879,-0.0366300366300365,-96.87870050130597,0.8043956043956051,1.0569758241758251
0.21300363540649414,0.9637979705500879,0.1098901098901095,-147.48021037437832,-1.1472527472527467,-1.507490109890109
0.2140045166015625,0.9637979705500879,-0.0366300366300365,146.39114736303821,-1.2175824175824168,-1.5999032967032956
0.21500229835510254,0.9637979705500879,-0.1098901098901095,73.42294344444856,0.7604395604395613,0.9992175824175834
0.2160015106201172,0.9637979705500879,0.08547008547008517,-195.5142087425545,1.463736263736262,1.9233494505494484
0.21700334548950195,0.9637979705500879,0.012210012210012167,73.125896790818,-0.3736263736263723,-0.4909450549450532
0.2180042266845703,0.9637979705500879,0.012210012210012167,-0.0,-1.5516483516483532,-2.038865934065936
0.21900629997253418,0.9637979705500879,-0.1098901098901095,121.84749715085147,-0.0659340659340657,-0.08663736263736231
0.22000408172607422,0.9637979705500879,-0.012210012210012167,-97.89725792593141,1.5076923076923094,1.9811076923076945
0.22100567817687988,0.9637979705500879,0.1831501831501825,-195.04880953107497,0.38241758241758106,0.5024967032967015
0.2220003604888916,0.9637979705500879,0.06105006105006083,122.75288363495415,-1.428571428571427,-1.877142857142855
0.22300028800964355,0.9637979705500879,0.012210012210012167,48.84358898665033,-0.6813186813186825,-0.8952527472527487
0.22400212287902832,0.9637979705500879,-0.13431013431013383,146.251793581636,1.2703296703296694,1.6692131868131854
0.22500061988830566,0.9637979705500879,0.012210012210012167,-146.74069642550967,0.9362637362637365,1.2302505494505496
